voltage [V],current [A],time [s]
-0.005304158,-4.999952e-05,0.0
-0.005294323,-4.990005e-05,0.1410802
-0.005283475,-4.9799e-05,0.2821202
-0.005272925,-4.969996e-05,0.4231809
-0.005263329,-4.959901e-05,0.5642396
-0.005251795,-4.949966e-05,0.7052897
-0.005241692,-4.93986e-05,0.8463343
-0.00523141,-4.92996e-05,0.987383
-0.005221158,-4.920016e-05,1.128436
-0.005210429,-4.909918e-05,1.269469
-0.005200207,-4.899975e-05,1.410528
-0.005188853,-4.88988e-05,1.551588
-0.005178452,-4.879947e-05,1.69264
-0.005168706,-4.869852e-05,1.833682
-0.005158514,-4.859935e-05,1.974748
-0.005148619,-4.849985e-05,2.115817
-0.005137563,-4.839902e-05,2.256849
-0.005126148,-4.82998e-05,2.397903
-0.005116522,-4.819884e-05,2.538964
-0.005105644,-4.809933e-05,2.680008
-0.005097181,-4.800029e-05,2.821056
-0.005085647,-4.78993e-05,2.962119
-0.005075544,-4.779993e-05,3.103158
-0.005064815,-4.769891e-05,3.244208
-0.005054146,-4.759962e-05,3.38526
-0.005043447,-4.749883e-05,3.526326
-0.005032897,-4.739944e-05,3.667362
-0.005022645,-4.730019e-05,3.808414
-0.005013376,-4.719924e-05,3.949472
-0.005002737,-4.709992e-05,4.090532
-0.00499317,-4.69989e-05,4.231567
-0.004981011,-4.689979e-05,4.37262
-0.004972011,-4.679878e-05,4.513667
-0.004960775,-4.669951e-05,4.654706
-0.004950285,-4.660025e-05,4.795742
-0.004940897,-4.649938e-05,4.936805
-0.004929274,-4.63998e-05,5.07786
-0.004919708,-4.629882e-05,5.218918
-0.004909575,-4.619973e-05,5.359973
-0.004899025,-4.610035e-05,5.501015
-0.004888505,-4.599936e-05,5.642089
-0.004877537,-4.590009e-05,5.783137
-0.004866302,-4.579927e-05,5.924187
-0.00485757,-4.569987e-05,6.06525
-0.004845768,-4.559876e-05,6.206315
-0.004837424,-4.549946e-05,6.347361
-0.00482592,-4.540026e-05,6.488392
-0.00481534,-4.529924e-05,6.629451
-0.004804492,-4.520005e-05,6.770493
-0.004793584,-4.509906e-05,6.911537
-0.004784346,-4.499967e-05,7.052581
-0.004774213,-4.490056e-05,7.193638
-0.004764467,-4.479961e-05,7.33469
-0.004751533,-4.470014e-05,7.475738
-0.004742026,-4.459907e-05,7.616784
-0.004731834,-4.449993e-05,7.757834
-0.004722118,-4.439901e-05,7.898895
-0.004711032,-4.429962e-05,8.03994
-0.00470072,-4.420038e-05,8.180993
-0.004690737,-4.409949e-05,8.322044
-0.004679531,-4.400015e-05,8.463101
-0.00466907,-4.389891e-05,8.604158
-0.004658848,-4.379956e-05,8.74522
-0.004648358,-4.369882e-05,8.886262
-0.004640162,-4.359931e-05,9.027332
-0.004628271,-4.350014e-05,9.168397
-0.00461778,-4.339909e-05,9.30943
-0.00460732,-4.329973e-05,9.450475
-0.004597247,-4.319887e-05,9.591522
-0.004586428,-4.309964e-05,9.732585
-0.00457564,-4.30003e-05,9.873622
-0.004564077,-4.289915e-05,10.01467
-0.004555017,-4.280008e-05,10.15573
-0.004544199,-4.269906e-05,10.29677
-0.004533499,-4.259979e-05,10.43781
-0.004523575,-4.249871e-05,10.57885
-0.004513353,-4.239968e-05,10.7199
-0.004503578,-4.230039e-05,10.86094
-0.0044927,-4.219933e-05,11.002
-0.004482657,-4.209984e-05,11.14306
-0.004471034,-4.199881e-05,11.28412
-0.004460424,-4.189962e-05,11.42516
-0.004451454,-4.180033e-05,11.56621
-0.00443992,-4.169939e-05,11.70726
-0.004430652,-4.160008e-05,11.8483
-0.004418939,-4.149918e-05,11.98937
-0.00440973,-4.139991e-05,12.13044
-0.004399061,-4.129884e-05,12.27151
-0.004388452,-4.119948e-05,12.41255
-0.004378259,-4.110034e-05,12.55359
-0.004366368,-4.099932e-05,12.69464
-0.004357666,-4.090017e-05,12.83568
-0.004345804,-4.079899e-05,12.97672
-0.004334986,-4.069979e-05,13.11779
-0.0043253,-4.059887e-05,13.25885
-0.004315227,-4.049952e-05,13.39988
-0.004304051,-4.040021e-05,13.54093
-0.004294127,-4.02992e-05,13.68197
-0.004283309,-4.02001e-05,13.82302
-0.004273295,-4.009898e-05,13.96405
-0.004262656,-3.999978e-05,14.10511
-0.004252255,-3.990035e-05,14.24617
-0.004240751,-3.979956e-05,14.38721
-0.004231036,-3.970024e-05,14.52825
-0.00422132,-3.959931e-05,14.66931
-0.004210323,-3.949998e-05,14.81037
-0.004199594,-3.93989e-05,14.95141
-0.004188716,-3.929975e-05,15.09247
-0.004178464,-3.920039e-05,15.23353
-0.004166722,-3.909944e-05,15.37456
-0.004158825,-3.900014e-05,15.51561
-0.004147351,-3.889934e-05,15.65669
-0.004136056,-3.880002e-05,15.79774
-0.004125774,-3.870051e-05,15.93878
-0.004114181,-3.859949e-05,16.07983
-0.004103899,-3.850029e-05,16.22089
-0.004093111,-3.839929e-05,16.36195
-0.004084438,-3.830007e-05,16.50299
-0.004072994,-3.819907e-05,16.64403
-0.004063487,-3.809998e-05,16.78505
-0.004053801,-3.800058e-05,16.92611
-0.004042357,-3.789968e-05,17.06715
-0.004031301,-3.780014e-05,17.2082
-0.004018992,-3.769912e-05,17.34927
-0.004009247,-3.76e-05,17.4903
-0.003998309,-3.749899e-05,17.63135
-0.00398916,-3.739978e-05,17.77241
-0.003977388,-3.730036e-05,17.91345
-0.003967047,-3.719956e-05,18.05449
-0.003956407,-3.710018e-05,18.19555
-0.003947496,-3.699891e-05,18.33662
-0.003934205,-3.689954e-05,18.47768
-0.00392437,-3.680041e-05,18.61873
-0.003913492,-3.669942e-05,18.75976
-0.003903985,-3.660015e-05,18.90083
-0.003891528,-3.649914e-05,19.04187
-0.003880799,-3.639974e-05,19.18294
-0.003869772,-3.629892e-05,19.32399
-0.003859222,-3.619965e-05,19.46503
-0.003848016,-3.610026e-05,19.60608
-0.003838032,-3.599931e-05,19.74712
-0.003827572,-3.590008e-05,19.88817
-0.003818631,-3.579914e-05,20.02921
-0.00380525,-3.569981e-05,20.17027
-0.003794312,-3.560047e-05,20.31132
-0.003783524,-3.549964e-05,20.45238
-0.003772587,-3.540031e-05,20.59343
-0.003762424,-3.529929e-05,20.73448
-0.003752351,-3.519983e-05,20.87552
-0.00374043,-3.509886e-05,21.01657
-0.003729135,-3.499961e-05,21.15763
-0.003719211,-3.490031e-05,21.29867
-0.003707469,-3.479935e-05,21.43973
-0.003695995,-3.470005e-05,21.58078
-0.003686309,-3.459929e-05,21.72182
-0.003674686,-3.449987e-05,21.86288
-0.003663719,-3.439885e-05,22.00393
-0.003651142,-3.429946e-05,22.14498
-0.003641695,-3.420038e-05,22.28604
-0.00362888,-3.409928e-05,22.42711
-0.003618509,-3.400008e-05,22.56813
-0.003607422,-3.389909e-05,22.70917
-0.003595978,-3.379972e-05,22.85022
-0.003585219,-3.370052e-05,22.99126
-0.003573835,-3.359953e-05,23.1323
-0.003560871,-3.350023e-05,23.27333
-0.003548592,-3.339921e-05,23.41438
-0.00353691,-3.330006e-05,23.55541
-0.003528863,-3.31991e-05,23.69646
-0.003516108,-3.309983e-05,23.8375
-0.003502011,-3.300043e-05,23.97856
-0.003491402,-3.28996e-05,24.11961
-0.003480017,-3.280034e-05,24.26065
-0.003467023,-3.269935e-05,24.4017
-0.003457367,-3.259999e-05,24.54275
-0.003442109,-3.249921e-05,24.6838
-0.003429741,-3.239981e-05,24.82486
-0.003417641,-3.230042e-05,24.96592
-0.003403991,-3.219949e-05,25.10697
-0.003392667,-3.210017e-05,25.24801
-0.003380626,-3.199934e-05,25.38906
-0.003367722,-3.19e-05,25.53011
-0.003352851,-3.180056e-05,25.67114
-0.003339469,-3.169953e-05,25.8122
-0.003325939,-3.160034e-05,25.95327
-0.003311157,-3.149937e-05,26.09431
-0.003300369,-3.140012e-05,26.23537
-0.003282815,-3.129907e-05,26.37642
-0.003267705,-3.119999e-05,26.51744
-0.003253967,-3.110064e-05,26.65849
-0.003237039,-3.099961e-05,26.79952
-0.003218979,-3.090018e-05,26.94057
-0.003201216,-3.079923e-05,27.08165
-0.00318259,-3.070004e-05,27.22269
-0.003158987,-3.060073e-05,27.36373
-0.003134966,-3.049975e-05,27.50478
-0.00283289,-3.040044e-05,27.64582
-0.002831846,-3.029956e-05,27.78685
-0.002830982,-3.020022e-05,27.92791
-0.002830207,-3.009892e-05,28.06897
-0.002829492,-2.99996e-05,28.21003
-0.002828479,-2.990042e-05,28.35109
-0.002827197,-2.979943e-05,28.49215
-0.00282672,-2.970017e-05,28.63318
-0.002826035,-2.959916e-05,28.77423
-0.002824783,-2.949983e-05,28.91528
-0.002824545,-2.939896e-05,29.05634
-0.002823472,-2.929967e-05,29.19738
-0.002823144,-2.920032e-05,29.33843
-0.00282225,-2.909935e-05,29.47949
-0.002821088,-2.900015e-05,29.62056
-0.002820432,-2.889913e-05,29.76159
-0.002819598,-2.879981e-05,29.90262
-0.002818614,-2.87005e-05,30.04368
-0.002817988,-2.859966e-05,30.18472
-0.00281778,-2.850036e-05,30.32577
-0.00281623,-2.839923e-05,30.46682
-0.002815574,-2.829987e-05,30.60787
-0.0028148,-2.819882e-05,30.74893
-0.002814621,-2.809965e-05,30.88998
-0.002813876,-2.800037e-05,31.03103
-0.002813637,-2.789937e-05,31.17208
-0.002813071,-2.78001e-05,31.31313
-0.002811879,-2.769927e-05,31.45418
-0.002811104,-2.75999e-05,31.59523
-0.002810717,-2.750047e-05,31.73627
-0.002809584,-2.73995e-05,31.87732
-0.002809048,-2.730034e-05,32.01838
-0.002808452,-2.719932e-05,32.15945
-0.002807617,-2.710008e-05,32.30048
-0.002807528,-2.699903e-05,32.44152
-0.00280717,-2.689968e-05,32.58257
-0.002806395,-2.680052e-05,32.72364
-0.00280562,-2.669949e-05,32.86469
-0.002804786,-2.660026e-05,33.00573
-0.002803445,-2.649927e-05,33.14679
-0.002802908,-2.640014e-05,33.28784
-0.002802819,-2.629917e-05,33.42889
-0.002801567,-2.619989e-05,33.56993
-0.002801448,-2.610048e-05,33.71096
-0.002801001,-2.599965e-05,33.85202
-0.002800196,-2.590037e-05,33.99307
-0.002800077,-2.579938e-05,34.13413
-0.002799362,-2.570004e-05,34.27517
-0.002798229,-2.560092e-05,34.41623
-0.002797544,-2.549989e-05,34.55729
-0.002797246,-2.540054e-05,34.69834
-0.002796859,-2.529952e-05,34.83939
-0.002795935,-2.520025e-05,34.98043
-0.002795279,-2.509939e-05,35.12149
-0.0027951,-2.500007e-05,35.26254
-0.002794117,-2.490063e-05,35.40359
-0.00279355,-2.479955e-05,35.54464
-0.002793401,-2.470039e-05,35.68571
-0.002792358,-2.459939e-05,35.82675
-0.002791733,-2.450017e-05,35.96781
-0.002791137,-2.440081e-05,36.10888
-0.002790719,-2.43e-05,36.24992
-0.002790004,-2.420068e-05,36.39097
-0.002789199,-2.409969e-05,36.53201
-0.002788961,-2.400023e-05,36.67307
-0.002788395,-2.389924e-05,36.81414
-0.002787322,-2.380011e-05,36.95518
-0.002787411,-2.370078e-05,37.09624
-0.002787352,-2.359982e-05,37.23729
-0.002786398,-2.350048e-05,37.37832
-0.002785832,-2.339961e-05,37.51938
-0.002784759,-2.330025e-05,37.66043
-0.002784163,-2.319893e-05,37.80148
-0.002783507,-2.309964e-05,37.94252
-0.002783149,-2.300048e-05,38.08356
-0.002782136,-2.289946e-05,38.22462
-0.002782285,-2.280028e-05,38.36567
-0.002781481,-2.269921e-05,38.50672
-0.002780735,-2.259982e-05,38.64777
-0.002780288,-2.250071e-05,38.78882
-0.002779484,-2.239972e-05,38.92988
-0.002779156,-2.230033e-05,39.07093
-0.002778679,-2.219938e-05,39.21199
-0.002777785,-2.210024e-05,39.35303
-0.002777517,-2.199913e-05,39.49405
-0.00277698,-2.189989e-05,39.63512
-0.002776265,-2.180054e-05,39.77617
-0.00277552,-2.169973e-05,39.91721
-0.002775341,-2.160037e-05,40.05826
-0.002774835,-2.149919e-05,40.1993
-0.002774298,-2.139989e-05,40.34035
-0.002773196,-2.129888e-05,40.48139
-0.002772838,-2.11997e-05,40.62243
-0.002773017,-2.110039e-05,40.76349
-0.002771705,-2.099943e-05,40.90454
-0.002771407,-2.090012e-05,41.04558
-0.002770334,-2.07993e-05,41.18664
-0.002770543,-2.069998e-05,41.32771
-0.00276947,-2.060049e-05,41.46875
-0.002768874,-2.049953e-05,41.60978
-0.002768487,-2.040034e-05,41.75082
-0.002767712,-2.029937e-05,41.89188
-0.002767205,-2.020008e-05,42.03294
-0.002766639,-2.009909e-05,42.17399
-0.002765864,-1.999993e-05,42.31505
-0.002765536,-1.990049e-05,42.45608
-0.00276494,-1.97995e-05,42.59713
-0.002763897,-1.970032e-05,42.7382
-0.002763778,-1.959936e-05,42.87928
-0.002763093,-1.950024e-05,43.02032
-0.002762437,-1.940092e-05,43.16137
-0.002762049,-1.929997e-05,43.30243
-0.002760857,-1.920058e-05,43.44347
-0.002760857,-1.909977e-05,43.58452
-0.002760231,-1.900045e-05,43.72557
-0.002759814,-1.889943e-05,43.86662
-0.002759218,-1.880011e-05,44.00765
-0.002758771,-1.870094e-05,44.14872
-0.002758652,-1.859994e-05,44.28977
-0.002757549,-1.850055e-05,44.43083
-0.002757072,-1.839963e-05,44.57186
-0.002756327,-1.830028e-05,44.71291
-0.002755612,-1.819947e-05,44.85397
-0.002755374,-1.810011e-05,44.99502
-0.002754927,-1.800065e-05,45.13609
-0.002753913,-1.789969e-05,45.27713
-0.002753168,-1.780046e-05,45.41819
-0.002752781,-1.769947e-05,45.55925
-0.002752036,-1.760024e-05,45.7003
-0.002751172,-1.750092e-05,45.84137
-0.002751529,-1.740002e-05,45.98241
-0.002750486,-1.730074e-05,46.12346
-0.002749711,-1.719969e-05,46.26452
-0.002749592,-1.710026e-05,46.40558
-0.002748907,-1.699927e-05,46.54664
-0.00274846,-1.690016e-05,46.68768
-0.002747655,-1.680084e-05,46.82873
-0.002746999,-1.669987e-05,46.96978
-0.00274691,-1.660052e-05,47.11082
-0.002745748,-1.649967e-05,47.25187
-0.002745599,-1.640026e-05,47.39293
-0.002744526,-1.63006e-05,47.53398
-0.002744347,-1.619961e-05,47.67502
-0.002744228,-1.61005e-05,47.81606
-0.002743006,-1.599948e-05,47.95711
-0.002742678,-1.590027e-05,48.09816
-0.002741665,-1.579925e-05,48.23921
-0.002741516,-1.569986e-05,48.38026
-0.002740711,-1.56007e-05,48.52131
-0.002740115,-1.549971e-05,48.66236
-0.002739817,-1.540041e-05,48.80341
-0.002738833,-1.529936e-05,48.94447
-0.002738506,-1.520023e-05,49.0855
-0.002737939,-1.509924e-05,49.22655
-0.002737224,-1.499985e-05,49.36761
-0.002736568,-1.490055e-05,49.50867
-0.002736598,-1.479969e-05,49.64971
-0.002736568,-1.470036e-05,49.79076
-0.002735078,-1.459919e-05,49.9318
-0.002734184,-1.449985e-05,50.07286
-0.002733678,-1.440075e-05,50.21392
-0.002733707,-1.429969e-05,50.35497
-0.002732664,-1.420037e-05,50.49601
-0.002732754,-1.409939e-05,50.63707
-0.002732009,-1.400012e-05,50.7781
-0.002731025,-1.389925e-05,50.91916
-0.002730429,-1.37999e-05,51.06021
-0.002729684,-1.370056e-05,51.20126
-0.002729326,-1.359945e-05,51.3423
-0.002728671,-1.350034e-05,51.48333
-0.002727717,-1.339929e-05,51.62439
-0.002728283,-1.33e-05,51.76544
-0.002727091,-1.320065e-05,51.90649
-0.002726555,-1.309982e-05,52.04755
-0.00272581,-1.300051e-05,52.1886
-0.002725214,-1.289933e-05,52.32964
-0.002724677,-1.280011e-05,52.47071
-0.002723992,-1.269915e-05,52.61176
-0.002723336,-1.260005e-05,52.7528
-0.002722949,-1.250069e-05,52.89384
-0.002722025,-1.239977e-05,53.0349
-0.002721846,-1.230049e-05,53.17595
-0.002720773,-1.219953e-05,53.31699
-0.002720445,-1.210022e-05,53.45804
-0.002720058,-1.19992e-05,53.59908
-0.002718955,-1.189992e-05,53.74012
-0.002718836,-1.180073e-05,53.88118
-0.002718121,-1.169973e-05,54.02223
-0.002717644,-1.160047e-05,54.1633
-0.002716303,-1.14994e-05,54.30435
-0.002716213,-1.140009e-05,54.44541
-0.002716303,-1.130094e-05,54.58647
-0.002715051,-1.119993e-05,54.7275
-0.002714574,-1.110042e-05,54.86855
-0.00271377,-1.099943e-05,55.00958
-0.002712935,-1.090032e-05,55.15067
-0.002712399,-1.079924e-05,55.29172
-0.002712011,-1.069998e-05,55.43278
-0.002710968,-1.060069e-05,55.57382
-0.002710164,-1.049988e-05,55.71487
-0.002710402,-1.040049e-05,55.85594
-0.002709657,-1.029941e-05,55.99699
-0.002709001,-1.020015e-05,56.13805
-0.002708733,-1.010075e-05,56.27908
-0.002707154,-9.999931e-06,56.42014
-0.002706945,-9.900614e-06,56.56119
-0.002706587,-9.799653e-06,56.70226
-0.002705783,-9.700278e-06,56.84329
-0.002704769,-9.599418e-06,56.98434
-0.002704412,-9.500101e-06,57.12538
-0.002703488,-9.400348e-06,57.26644
-0.002702653,-9.299387e-06,57.40748
-0.002702355,-9.200288e-06,57.54852
-0.0027017,-9.099313e-06,57.68957
-0.002701223,-8.999996e-06,57.83064
-0.00270009,-8.89902e-06,57.97168
-0.002699196,-8.799892e-06,58.11273
-0.002698392,-8.700474e-06,58.25378
-0.002698362,-8.599483e-06,58.39483
-0.00269714,-8.500167e-06,58.53588
-0.002696306,-8.399191e-06,58.67693
-0.00269568,-8.29999e-06,58.81798
-0.002695382,-8.200717e-06,58.95902
-0.002693802,-8.099742e-06,59.10008
-0.002693534,-8.000308e-06,59.24113
-0.002692729,-7.899434e-06,59.38219
-0.002691716,-7.800161e-06,59.52324
-0.00269106,-7.698953e-06,59.66429
-0.002690256,-7.599636e-06,59.80533
-0.002690017,-7.500523e-06,59.94637
-0.002688825,-7.399489e-06,60.08742
-0.002687931,-7.30007e-06,60.22847
-0.002687931,-7.199167e-06,60.36953
-0.002686858,-7.099894e-06,60.51055
-0.002685666,-6.999035e-06,60.65162
-0.002683818,-6.899631e-06,60.79265
-0.002683252,-6.800299e-06,60.9337
-0.002682686,-6.699323e-06,61.07474
-0.002681553,-6.600065e-06,61.2158
-0.002680749,-6.499075e-06,61.35684
-0.002679497,-6.399743e-06,61.49788
-0.00267905,-6.300354e-06,61.63892
-0.00267753,-6.199523e-06,61.77996
-0.002676159,-6.100192e-06,61.92103
-0.002675474,-5.998765e-06,62.06209
-0.002673715,-5.899405e-06,62.20314
-0.002672821,-5.798458e-06,62.34419
-0.002671182,-5.699374e-06,62.48524
-0.002669781,-5.599941e-06,62.62632
-0.00266853,-5.499096e-06,62.76735
-0.002666563,-5.399823e-06,62.90839
-0.002664715,-5.298993e-06,63.04946
-0.002661735,-5.199545e-06,63.19052
-0.002660304,-5.100228e-06,63.33157
-0.00265637,-4.999267e-06,63.4726
-0.002652317,-4.900023e-06,63.61367
-0.002646774,-4.799047e-06,63.75471
-0.002639711,-4.699774e-06,63.89577
-0.00262621,-4.598813e-06,64.03681
-0.002605557,-4.499321e-06,64.17787
-0.002586156,-4.400237e-06,64.31893
-0.002557993,-4.299203e-06,64.45998
-0.002523094,-4.199697e-06,64.60102
-0.002494782,-4.098736e-06,64.74209
-0.002448738,-3.999638e-06,64.88314
-0.002407521,-3.898633e-06,65.0242
-0.002371222,-3.799272e-06,65.16528
-0.002316803,-3.69997e-06,65.30631
-0.002269506,-3.599183e-06,65.44737
-0.002222329,-3.499765e-06,65.58843
-0.002164453,-3.398673e-06,65.7295
-0.002109855,-3.299443e-06,65.87054
-0.002049565,-3.200257e-06,66.01161
-0.001988471,-3.099136e-06,66.15266
-0.001918346,-2.999819e-06,66.2937
-0.001859874,-2.898945e-06,66.43474
-0.001775086,-2.799468e-06,66.57578
-0.001700491,-2.698667e-06,66.71683
-0.001611024,-2.599321e-06,66.85788
-0.001520097,-2.499713e-06,66.99893
-0.001426786,-2.39865e-06,67.13999
-0.00134331,-2.299552e-06,67.28105
-0.001288682,-2.198576e-06,67.42208
-0.001220465,-2.099201e-06,67.56312
-0.001153082,-2.00003e-06,67.70417
-0.001075953,-1.899156e-06,67.84522
-0.0009913146,-1.799781e-06,67.98627
-0.0008860528,-1.698616e-06,68.12732
-0.0008077621,-1.599372e-06,68.26837
-0.0007360578,-1.498396e-06,68.40941
-0.0006624758,-1.399152e-06,68.55046
-0.0005859435,-1.299937e-06,68.69152
-0.0005146265,-1.198976e-06,68.83255
-0.0004434586,-1.099615e-06,68.97361
-0.0003729165,-9.986979e-07,69.11468
-0.0003082454,-8.99352e-07,69.25573
-0.0002415478,-7.981871e-07,69.39679
-0.0001743138,-6.987539e-07,69.53782
-0.0001323521,-5.997426e-07,69.67887
7.003546e-06,-4.987378e-07,69.81991
6.705523e-06,-3.993337e-07,69.96094
6.854534e-06,-2.983143e-07,70.10198
6.67572e-06,-1.990556e-07,70.24302
7.092953e-06,-9.985524e-08,70.38404
6.79493e-06,1.280569e-09,70.52508
7.212162e-06,9.998621e-08,70.66643
6.824732e-06,1.991866e-07,70.80749
6.943941e-06,2.985471e-07,70.94854
7.18236e-06,3.995519e-07,71.08959
7.092953e-06,4.988106e-07,71.23063
6.616116e-06,5.998008e-07,71.37167
7.18236e-06,6.98943e-07,71.51271
7.092953e-06,7.999188e-07,71.65377
6.914139e-06,8.99352e-07,71.7948
7.420778e-06,9.987707e-07,71.93587
7.122755e-06,1.099601e-06,72.07691
6.943941e-06,1.198932e-06,72.21796
7.271767e-06,1.299835e-06,72.35902
7.122755e-06,1.399152e-06,72.50005
6.407499e-06,1.498338e-06,72.6411
6.884336e-06,1.599328e-06,72.78212
6.645918e-06,1.698689e-06,72.92316
7.092953e-06,1.799723e-06,73.0642
7.18236e-06,1.899025e-06,73.20525
7.241964e-06,1.999826e-06,73.34628
6.28829e-06,2.099157e-06,73.48733
7.122755e-06,2.198387e-06,73.62837
7.241964e-06,2.299392e-06,73.7694
6.79493e-06,2.398607e-06,73.91044
6.854534e-06,2.499539e-06,74.05148
6.854534e-06,2.599219e-06,74.19254
7.361174e-06,2.70021e-06,74.33361
7.361174e-06,2.799366e-06,74.47466
7.18236e-06,2.898698e-06,74.6157
7.331371e-06,2.999644e-06,74.75678
7.659197e-06,3.099034e-06,74.89783
6.824732e-06,3.200024e-06,75.03887
7.122755e-06,3.299137e-06,75.17992
6.705523e-06,3.400142e-06,75.32098
7.003546e-06,3.499474e-06,75.46202
6.824732e-06,3.598834e-06,75.60307
6.914139e-06,3.699664e-06,75.74411
6.854534e-06,3.799054e-06,75.88515
6.943941e-06,3.899942e-06,76.02619
6.854534e-06,3.999259e-06,76.16724
6.914139e-06,4.100046e-06,76.30829
6.616116e-06,4.199377e-06,76.44933
6.616116e-06,4.298839e-06,76.59037
