voltage [V],current [A],time [s]
-0.003982902,-3.99995e-05,0.0
-0.003973335,-3.990009e-05,0.1410739
-0.003963828,-3.979931e-05,0.282116
-0.003953844,-3.969997e-05,0.4231817
-0.003943831,-3.959904e-05,0.5642197
-0.003934354,-3.94997e-05,0.7052593
-0.003924578,-3.939858e-05,0.846298
-0.003914833,-3.92995e-05,0.9873568
-0.003905386,-3.920015e-05,1.128406
-0.003895164,-3.909916e-05,1.269449
-0.003885686,-3.899985e-05,1.410504
-0.003875583,-3.889903e-05,1.551554
-0.003866613,-3.879977e-05,1.692612
-0.003856599,-3.870025e-05,1.833677
-0.003846645,-3.859922e-05,1.974725
-0.003837466,-3.85e-05,2.115764
-0.003827453,-3.839901e-05,2.256809
-0.003817827,-3.82998e-05,2.397871
-0.003808737,-3.819884e-05,2.538931
-0.003798783,-3.809974e-05,2.679977
-0.003788292,-3.800032e-05,2.821015
-0.003778905,-3.789936e-05,2.962056
-0.003769547,-3.779991e-05,3.103123
-0.003759563,-3.769892e-05,3.244168
-0.003749162,-3.759978e-05,3.385213
-0.003739923,-3.749876e-05,3.526261
-0.003730655,-3.739957e-05,3.667286
-0.003721237,-3.730014e-05,3.808339
-0.003710538,-3.719935e-05,3.949382
-0.003700912,-3.709995e-05,4.090432
-0.003691614,-3.699871e-05,4.231468
-0.003682256,-3.689932e-05,4.372506
-0.003673077,-3.680021e-05,4.513541
-0.003663331,-3.669926e-05,4.654609
-0.003653079,-3.659986e-05,4.795642
-0.003643036,-3.649892e-05,4.936677
-0.003634036,-3.639955e-05,5.077714
-0.003624082,-3.629872e-05,5.218781
-0.003614724,-3.619942e-05,5.359836
-0.003605187,-3.610009e-05,5.500892
-0.00359568,-3.599912e-05,5.641943
-0.003585547,-3.589985e-05,5.782974
-0.00357613,-3.579889e-05,5.924018
-0.003567278,-3.56996e-05,6.065065
-0.003557056,-3.560026e-05,6.206129
-0.003547519,-3.549946e-05,6.347168
-0.003537565,-3.540009e-05,6.488213
-0.003528714,-3.529909e-05,6.629256
-0.00351873,-3.519961e-05,6.770302
-0.003509164,-3.509864e-05,6.911342
-0.003499418,-3.499942e-05,7.052387
-0.003490031,-3.490013e-05,7.193428
-0.003480345,-3.479917e-05,7.334484
-0.003470838,-3.469984e-05,7.475511
-0.003461242,-3.459906e-05,7.616549
-0.003451645,-3.449965e-05,7.75761
-0.003441244,-3.439863e-05,7.898664
-0.003432155,-3.429923e-05,8.039697
-0.003422916,-3.420014e-05,8.180731
-0.003413171,-3.40991e-05,8.321779
-0.003403693,-3.399988e-05,8.4628
-0.003394306,-3.389888e-05,8.603852
-0.003385037,-3.379949e-05,8.744905
-0.003375381,-3.37003e-05,8.885958
-0.003365725,-3.35993e-05,9.027
-0.003356457,-3.349995e-05,9.168058
-0.003346384,-3.339894e-05,9.309103
-0.003336549,-3.329985e-05,9.450151
-0.003327668,-3.319887e-05,9.591207
-0.003318161,-3.309955e-05,9.732275
-0.003308713,-3.300018e-05,9.873331
-0.003298551,-3.289941e-05,10.01436
-0.003289282,-3.280006e-05,10.1554
-0.003279537,-3.269913e-05,10.29645
-0.003270268,-3.259977e-05,10.43752
-0.003260434,-3.2499e-05,10.57856
-0.003251284,-3.239955e-05,10.71961
-0.003242105,-3.230025e-05,10.86067
-0.003231347,-3.219928e-05,11.00172
-0.003222346,-3.209994e-05,11.14275
-0.003212065,-3.199909e-05,11.28382
-0.003203213,-3.189982e-05,11.42488
-0.003194094,-3.180034e-05,11.56592
-0.003184259,-3.169927e-05,11.70695
-0.003174931,-3.16001e-05,11.84801
-0.003164977,-3.14991e-05,11.98905
-0.003155708,-3.139989e-05,12.13009
-0.003145844,-3.129886e-05,12.27115
-0.003136694,-3.119974e-05,12.41222
-0.003127277,-3.110046e-05,12.55327
-0.003117383,-3.099942e-05,12.69431
-0.003108174,-3.090005e-05,12.83536
-0.003098398,-3.079904e-05,12.9764
-0.003088951,-3.069987e-05,13.11744
-0.003079653,-3.060058e-05,13.25848
-0.003070027,-3.049959e-05,13.39954
-0.003060877,-3.040029e-05,13.5406
-0.00305149,-3.029937e-05,13.68165
-0.003042191,-3.020004e-05,13.82269
-0.00303188,-3.009873e-05,13.96373
-0.003022403,-2.99994e-05,14.10477
-0.003013045,-2.990024e-05,14.2458
-0.003003597,-2.979927e-05,14.38685
-0.002993941,-2.969995e-05,14.5279
-0.002984464,-2.959897e-05,14.66896
-0.002974987,-2.949964e-05,14.80999
-0.002964497,-2.939877e-05,14.95105
-0.002955198,-2.929948e-05,15.09211
-0.002946109,-2.920015e-05,15.23315
-0.002936691,-2.90991e-05,15.3742
-0.002926767,-2.899997e-05,15.51525
-0.00291726,-2.889891e-05,15.65629
-0.002907604,-2.879965e-05,15.79733
-0.002898186,-2.870036e-05,15.93837
-0.002888113,-2.859952e-05,16.07942
-0.002879262,-2.850019e-05,16.22049
-0.002869815,-2.839902e-05,16.36153
-0.002859652,-2.829971e-05,16.50256
-0.002850324,-2.819867e-05,16.64362
-0.002840608,-2.809946e-05,16.78469
-0.002831072,-2.800015e-05,16.92574
-0.002821028,-2.789919e-05,17.06679
-0.002811104,-2.779986e-05,17.20783
-0.002801925,-2.769906e-05,17.34886
-0.002792299,-2.759974e-05,17.48992
-0.002782494,-2.75003e-05,17.63097
-0.002772629,-2.739932e-05,17.77202
-0.002763212,-2.730019e-05,17.91307
-0.002753139,-2.719916e-05,18.0541
-0.00274381,-2.70999e-05,18.19517
-0.002733171,-2.69989e-05,18.33622
-0.00272429,-2.689954e-05,18.47726
-0.002714247,-2.680029e-05,18.6183
-0.002704144,-2.669932e-05,18.75936
-0.002694309,-2.66001e-05,18.9004
-0.002684474,-2.649904e-05,19.04144
-0.00267458,-2.639987e-05,19.18247
-0.002664655,-2.629893e-05,19.32354
-0.002655059,-2.619965e-05,19.46459
-0.002644807,-2.610029e-05,19.60564
-0.002633989,-2.599944e-05,19.74671
-0.002623767,-2.590015e-05,19.88774
-0.002613783,-2.579915e-05,20.02878
-0.002604038,-2.569985e-05,20.16984
-0.002593637,-2.560072e-05,20.31088
-0.002582848,-2.549964e-05,20.45193
-0.002573162,-2.540031e-05,20.59298
-0.002562732,-2.529932e-05,20.73402
-0.002551287,-2.520003e-05,20.87508
-0.002541959,-2.509914e-05,21.01611
-0.002530992,-2.499988e-05,21.15716
-0.002519667,-2.490039e-05,21.29823
-0.002508432,-2.479933e-05,21.43927
-0.002497584,-2.470019e-05,21.58031
-0.002486229,-2.459918e-05,21.72136
-0.002474636,-2.449994e-05,21.8624
-0.002463281,-2.440061e-05,22.00344
-0.002451897,-2.429979e-05,22.14448
-0.002440006,-2.42005e-05,22.28554
-0.002426773,-2.409949e-05,22.42659
-0.002415299,-2.400007e-05,22.56763
-0.002400875,-2.389906e-05,22.70868
-0.002388597,-2.379993e-05,22.84973
-0.00237298,-2.37006e-05,22.99078
-0.002358288,-2.359967e-05,23.13182
-0.002340794,-2.350035e-05,23.27289
-0.002319723,-2.339939e-05,23.41395
-0.002288908,-2.330006e-05,23.555
-0.002217889,-2.319875e-05,23.69603
-0.002201676,-2.309946e-05,23.83709
-0.002194285,-2.300029e-05,23.97814
-0.002187878,-2.289932e-05,24.11917
-0.002184004,-2.280012e-05,24.26023
-0.002178937,-2.269904e-05,24.40128
-0.002176374,-2.259966e-05,24.54232
-0.002173185,-2.250054e-05,24.68335
-0.002171457,-2.239954e-05,24.8244
-0.002167106,-2.230016e-05,24.96544
-0.00216499,-2.219919e-05,25.1065
-0.002163947,-2.210004e-05,25.24753
-0.002161711,-2.1999e-05,25.38859
-0.002159029,-2.189974e-05,25.52964
-0.002158076,-2.180038e-05,25.67068
-0.002156824,-2.16996e-05,25.81171
-0.002154022,-2.160024e-05,25.95276
-0.002153397,-2.149907e-05,26.09381
-0.002152205,-2.139976e-05,26.23487
-0.002149761,-2.129872e-05,26.37591
-0.002148896,-2.119955e-05,26.51697
-0.002147436,-2.110026e-05,26.65804
-0.002144933,-2.099933e-05,26.79907
-0.00214386,-2.089996e-05,26.94013
-0.002142817,-2.079915e-05,27.08117
-0.002141058,-2.069982e-05,27.22222
-0.002140433,-2.060038e-05,27.36327
-0.002139926,-2.049938e-05,27.50433
-0.002137095,-2.040021e-05,27.64538
-0.00213623,-2.029924e-05,27.78643
-0.002135009,-2.019991e-05,27.92747
-0.002133578,-2.009892e-05,28.06852
-0.00213331,-1.999979e-05,28.20957
-0.002130359,-1.990038e-05,28.35061
-0.002129048,-1.979934e-05,28.49165
-0.002129287,-1.970019e-05,28.6327
-0.002128094,-1.959916e-05,28.77376
-0.002126932,-1.950003e-05,28.91481
-0.002125859,-1.940073e-05,29.05586
-0.002123982,-1.929978e-05,29.19691
-0.002123833,-1.920038e-05,29.33794
-0.002123237,-1.909956e-05,29.47899
-0.002122164,-1.900019e-05,29.62004
-0.002119988,-1.889924e-05,29.7611
-0.002118886,-1.87999e-05,29.90216
-0.002119303,-1.870077e-05,30.04321
-0.002117425,-1.859978e-05,30.18428
-0.002118468,-1.850037e-05,30.32532
-0.002115726,-1.839947e-05,30.46636
-0.002114862,-1.830011e-05,30.60741
-0.002114743,-1.819928e-05,30.74847
-0.002111554,-1.809993e-05,30.8895
-0.002112508,-1.800043e-05,31.03054
-0.002112061,-1.789945e-05,31.17159
-0.002109528,-1.780028e-05,31.31264
-0.002109289,-1.769925e-05,31.45367
-0.002108902,-1.76e-05,31.59471
-0.002105922,-1.75007e-05,31.73576
-0.002107114,-1.739986e-05,31.87679
-0.002104729,-1.730052e-05,32.01784
-0.002103925,-1.719949e-05,32.15889
-0.002102256,-1.710009e-05,32.29995
-0.002101511,-1.699911e-05,32.44101
-0.002100885,-1.689998e-05,32.58206
-0.002100855,-1.680065e-05,32.7231
-0.002097994,-1.669969e-05,32.86416
-0.002097994,-1.660036e-05,33.00519
-0.002095699,-1.649953e-05,33.14625
-0.002096176,-1.640008e-05,33.28731
-0.002094448,-1.630044e-05,33.42837
-0.00209409,-1.619953e-05,33.56943
-0.002091914,-1.610037e-05,33.71048
-0.002093434,-1.599935e-05,33.85153
-0.002092272,-1.590005e-05,33.99258
-0.00208953,-1.57991e-05,34.13363
-0.002089053,-1.569971e-05,34.27469
-0.002088666,-1.560058e-05,34.41575
-0.002086431,-1.549955e-05,34.5568
-0.002085507,-1.540026e-05,34.69785
-0.00208509,-1.529923e-05,34.83889
-0.002084136,-1.520006e-05,34.97995
-0.002083004,-1.509908e-05,35.12101
-0.002082884,-1.499972e-05,35.26205
-0.002081066,-1.490043e-05,35.40311
-0.002081096,-1.479955e-05,35.54418
-0.002080709,-1.470021e-05,35.68523
-0.002079546,-1.459906e-05,35.82626
-0.002079308,-1.449976e-05,35.96731
-0.002077609,-1.440063e-05,36.10838
-0.002076566,-1.429956e-05,36.24942
-0.002075881,-1.420025e-05,36.39046
-0.002074093,-1.409931e-05,36.53152
-0.002074718,-1.399998e-05,36.67259
-0.002073079,-1.389913e-05,36.81364
-0.002070397,-1.379977e-05,36.95468
-0.002070218,-1.370044e-05,37.09574
-0.002069175,-1.359935e-05,37.23678
-0.002067715,-1.350025e-05,37.37784
-0.002067953,-1.339919e-05,37.51889
-0.002064735,-1.329994e-05,37.65995
-0.002066195,-1.320055e-05,37.80098
-0.002062976,-1.309969e-05,37.94204
-0.002063185,-1.300036e-05,38.08307
-0.002063781,-1.289924e-05,38.22412
-0.002059817,-1.280001e-05,38.36517
-0.002060771,-1.269902e-05,38.5062
-0.002058148,-1.259994e-05,38.64726
-0.002058208,-1.250055e-05,38.78829
-0.002058029,-1.239964e-05,38.92934
-0.002055466,-1.230037e-05,39.07039
-0.002055138,-1.219945e-05,39.21144
-0.002052009,-1.210011e-05,39.35248
-0.002052367,-1.199915e-05,39.49352
-0.00205043,-1.189984e-05,39.63459
-0.00204888,-1.180066e-05,39.77562
-0.002047896,-1.169964e-05,39.91665
-0.002045274,-1.160041e-05,40.0577
-0.00204435,-1.149933e-05,40.19875
-0.002044082,-1.14e-05,40.33982
-0.00204128,-1.130086e-05,40.48087
-0.002039433,-1.119979e-05,40.62192
-0.00203982,-1.110032e-05,40.76297
-0.002039552,-1.099931e-05,40.90403
-0.002037883,-1.090026e-05,41.04509
-0.002033919,-1.079911e-05,41.18613
-0.002032876,-1.069989e-05,41.32718
-0.002031177,-1.06006e-05,41.46821
-0.00203073,-1.049976e-05,41.60926
-0.002028048,-1.040038e-05,41.75031
-0.002026051,-1.029932e-05,41.89137
-0.002025008,-1.020008e-05,42.03241
-0.002023578,-1.010062e-05,42.17347
-0.002020806,-9.999858e-06,42.31451
-0.002019107,-9.900526e-06,42.45556
-0.002015531,-9.799565e-06,42.5966
-0.00201261,-9.70019e-06,42.73765
-0.002009034,-9.599331e-06,42.87869
-0.002005816,-9.5e-06,43.01972
-0.002002388,-9.40029e-06,43.16076
-0.001995355,-9.299329e-06,43.3018
-0.001992553,-9.200274e-06,43.44287
-0.001986414,-9.099211e-06,43.5839
-0.001980513,-8.999908e-06,43.72496
-0.001971692,-8.898976e-06,43.86602
-0.001962602,-8.79982e-06,44.00708
-0.001952291,-8.700386e-06,44.14811
-0.001943171,-8.599396e-06,44.28916
-0.00192678,-8.500094e-06,44.43021
-0.001912475,-8.399089e-06,44.57128
-0.00189665,-8.299932e-06,44.7123
-0.001874775,-8.200615e-06,44.85335
-0.001855165,-8.099683e-06,44.9944
-0.001831353,-8.000236e-06,45.13544
-0.00180316,-7.899391e-06,45.27648
-0.00177604,-7.800074e-06,45.41752
-0.001741767,-7.698851e-06,45.55858
-0.001708359,-7.599519e-06,45.69964
-0.001677275,-7.500421e-06,45.84069
-0.001639396,-7.39946e-06,45.98172
-0.001602411,-7.299997e-06,46.12278
-0.00156644,-7.199094e-06,46.26383
-0.001525104,-7.099836e-06,46.40487
-0.00148201,-6.998962e-06,46.54591
-0.001441598,-6.899572e-06,46.68697
-0.00140354,-6.800256e-06,46.828
-0.001357913,-6.699222e-06,46.96903
-0.001317352,-6.600007e-06,47.11009
-0.001273036,-6.499002e-06,47.25113
-0.001230329,-6.399729e-06,47.39219
-0.001184702,-6.30031e-06,47.53324
-0.001137584,-6.199494e-06,47.67429
-0.001092046,-6.100148e-06,47.81532
-0.001054347,-5.998663e-06,47.95638
-0.001027405,-5.899303e-06,48.09744
-0.001003176,-5.798371e-06,48.23851
-0.0009813309,-5.699272e-06,48.37956
-0.0009581745,-5.599824e-06,48.52061
-0.0009340048,-5.498994e-06,48.66167
-0.0009086728,-5.39975e-06,48.80272
-0.0008838475,-5.298891e-06,48.94375
-0.000856787,-5.199487e-06,49.0848
-0.0008302629,-5.10017e-06,49.22584
-0.000800848,-4.999267e-06,49.36691
-0.0007695258,-4.899979e-06,49.50795
-0.0007363558,-4.799032e-06,49.649
-0.000703603,-4.699701e-06,49.79006
-0.000674516,-4.59874e-06,49.93111
-0.0006529689,-4.499292e-06,50.07214
-0.0006335974,-4.400194e-06,50.21318
-0.0006127656,-4.299145e-06,50.35424
-0.0005927086,-4.199595e-06,50.49528
-0.0005699396,-4.098663e-06,50.63634
-0.0005470812,-3.999579e-06,50.77738
-0.0005212426,-3.898545e-06,50.91845
-0.0004977286,-3.799214e-06,51.05952
-0.0004782081,-3.699985e-06,51.20055
-0.0004581809,-3.599111e-06,51.34161
-0.0004399121,-3.499692e-06,51.48268
-0.0004199147,-3.398614e-06,51.62371
-0.0003985167,-3.299385e-06,51.76476
-0.0003798604,-3.200243e-06,51.90582
-0.0003619194,-3.099136e-06,52.04688
-0.0003439784,-2.999805e-06,52.18793
-0.0003257096,-2.898887e-06,52.32898
-0.0003078282,-2.799425e-06,52.47002
-0.0002911091,-2.698653e-06,52.61108
-0.0002736151,-2.599263e-06,52.75212
-0.0002568364,-2.499612e-06,52.89316
-0.0002404749,-2.398578e-06,53.03421
-0.0002249479,-2.299523e-06,53.17527
-0.0002087951,-2.198547e-06,53.3163
-0.0001932979,-2.099143e-06,53.45733
-0.0001782477,-1.999986e-06,53.59838
-0.0001633763,-1.899083e-06,53.73941
-0.0001484454,-1.799752e-06,53.88045
-0.0001336932,-1.698587e-06,54.02149
-0.0001197159,-1.599386e-06,54.16256
7.480383e-06,-1.498396e-06,54.3036
7.331371e-06,-1.399138e-06,54.44466
7.331371e-06,-1.299923e-06,54.58572
7.808208e-06,-1.198976e-06,54.72678
7.897615e-06,-1.099572e-06,54.86783
7.688999e-06,-9.986106e-07,55.00888
6.824732e-06,-8.993229e-07,55.14995
7.033348e-06,-7.98158e-07,55.29101
7.56979e-06,-6.987539e-07,55.43206
7.56979e-06,-5.997572e-07,55.5731
7.56979e-06,-4.987232e-07,55.71416
7.539988e-06,-3.993919e-07,55.8552
7.331371e-06,-2.983288e-07,55.99625
7.808208e-06,-1.990556e-07,56.13731
7.241964e-06,-9.988435e-08,56.27837
8.046627e-06,1.280569e-09,56.41943
7.271767e-06,1.003064e-07,56.56079
7.152557e-06,1.99434e-07,56.70186
7.599592e-06,2.98809e-07,56.84291
7.18236e-06,3.998284e-07,56.98397
7.271767e-06,4.990434e-07,57.12504
7.271767e-06,6.000046e-07,57.26611
7.361174e-06,6.991759e-07,57.40716
7.122755e-06,8.001807e-07,57.54821
7.56979e-06,8.996576e-07,57.68926
7.003546e-06,9.990763e-07,57.83032
7.808208e-06,1.099907e-06,57.97135
7.301569e-06,1.199223e-06,58.11241
7.361174e-06,1.30017e-06,58.25347
7.480383e-06,1.399458e-06,58.39452
7.56979e-06,1.498629e-06,58.53556
7.18236e-06,1.599634e-06,58.67662
7.480383e-06,1.698936e-06,58.81768
7.271767e-06,1.800014e-06,58.95872
7.241964e-06,1.899301e-06,59.09978
7.331371e-06,2.000103e-06,59.24084
7.748604e-06,2.09939e-06,59.38189
7.18236e-06,2.198693e-06,59.52295
7.18236e-06,2.299697e-06,59.66402
7.659197e-06,2.398869e-06,59.80509
7.122755e-06,2.49983e-06,59.94615
0.000287801,2.599481e-06,60.08718
0.0003055334,2.700486e-06,60.22822
0.0003232062,2.799614e-06,60.36928
0.0003395081,2.898974e-06,60.51031
0.0003581941,2.999892e-06,60.65135
0.0003758073,3.099296e-06,60.7924
0.0003939867,3.200286e-06,60.93343
0.0004141033,3.299385e-06,61.07448
0.0004350245,3.400419e-06,61.21551
0.0004549325,3.499736e-06,61.35657
0.0004739761,3.599082e-06,61.49763
0.0004925132,3.699926e-06,61.63868
0.0005120933,3.799301e-06,61.77971
0.0005371273,3.900219e-06,61.92078
0.0005611479,3.999521e-06,62.06182
0.0005849898,4.100322e-06,62.20287
0.0006061792,4.199639e-06,62.34393
0.0006275475,4.299101e-06,62.48499
0.0006468594,4.400164e-06,62.62606
0.0006673038,4.499554e-06,62.7671
0.0006901622,4.600312e-06,62.90815
0.0007175207,4.699657e-06,63.0492
0.0007523894,4.80056e-06,63.19024
0.0007840395,4.899892e-06,63.33128
0.00081563,4.999034e-06,63.47236
0.000843972,5.100039e-06,63.61339
0.0008707345,5.199443e-06,63.75443
0.0008988082,5.30036e-06,63.89547
0.0009247959,5.399546e-06,64.03653
0.0009480715,5.500537e-06,64.17757
0.0009732842,5.599766e-06,64.31861
0.0009968281,5.699127e-06,64.45967
0.001018107,5.799899e-06,64.60072
0.001041681,5.899288e-06,64.74175
0.001070142,6.000264e-06,64.88279
0.00110814,6.099974e-06,65.02384
0.001156121,6.200964e-06,65.16488
0.00120157,6.300063e-06,65.30591
0.001247972,6.399452e-06,65.44696
0.001291424,6.500413e-06,65.58802
0.001334965,6.599745e-06,65.72906
0.001375884,6.70056e-06,65.8701
0.001418173,6.799921e-06,66.01114
0.001460582,6.900969e-06,66.1522
0.001501262,7.000257e-06,66.29324
0.00154075,7.099414e-06,66.43429
0.001580089,7.200375e-06,66.57534
0.001618207,7.299852e-06,66.71639
0.001656413,7.400682e-06,66.85744
0.001693487,7.499984e-06,66.99851
0.001729637,7.599112e-06,67.13958
0.001758516,7.700146e-06,67.28061
0.001790762,7.799652e-06,67.42165
0.001818806,7.900599e-06,67.56269
0.00184533,7.999828e-06,67.70375
0.001868933,8.100818e-06,67.8448
0.001889825,8.200062e-06,67.98586
0.001911074,8.299365e-06,68.12691
0.001926273,8.400195e-06,68.26797
0.001942754,8.499512e-06,68.40901
0.00195685,8.600575e-06,68.55005
0.001966298,8.699935e-06,68.6911
0.001977324,8.800882e-06,68.83215
0.001986325,8.900024e-06,68.9732
0.0019916,8.999355e-06,69.11424
0.002000213,9.100229e-06,69.25529
0.002004057,9.199575e-06,69.39632
0.002008945,9.300406e-06,69.53737
0.00201416,9.399795e-06,69.67842
0.002016842,9.501062e-06,69.81948
0.002020627,9.600379e-06,69.96054
0.002025038,9.699477e-06,70.10159
0.00202921,9.800497e-06,70.24263
0.002029806,9.899857e-06,70.3837
0.002034098,1.00008e-05,70.52473
0.002034575,1.010021e-05,70.66579
0.00203827,1.020098e-05,70.80685
0.002040535,1.030031e-05,70.94791
0.002041012,1.039961e-05,71.08896
0.002043933,1.050063e-05,71.23001
0.002045959,1.059979e-05,71.37106
0.002046555,1.070081e-05,71.5121
0.002049625,1.080008e-05,71.65316
0.002050579,1.090103e-05,71.79421
0.002051502,1.100019e-05,71.93527
0.00205487,1.109952e-05,72.0763
0.00205344,1.120067e-05,72.21735
0.002056152,1.129998e-05,72.35841
0.002058476,1.140083e-05,72.49946
0.002057582,1.150022e-05,72.64049
0.002059966,1.160119e-05,72.78155
0.002062172,1.170041e-05,72.9226
0.002062112,1.17997e-05,73.06366
0.002063036,1.190051e-05,73.2047
0.002066076,1.199992e-05,73.34575
0.002066016,1.210091e-05,73.48681
0.002066463,1.220025e-05,73.62786
0.002067983,1.230102e-05,73.76892
0.002069235,1.240031e-05,73.90998
0.002070814,1.24996e-05,74.05102
0.002071649,1.260056e-05,74.19206
0.002072752,1.269976e-05,74.3331
0.002073586,1.280077e-05,74.47414
0.002075255,1.290021e-05,74.61518
0.002076089,1.300103e-05,74.75621
0.002077669,1.310039e-05,74.89728
0.002078354,1.319953e-05,75.0383
0.002079725,1.330049e-05,75.17934
0.002080321,1.339977e-05,75.32039
0.00208205,1.35008e-05,75.46143
0.002082705,1.36e-05,75.60246
0.002084762,1.370096e-05,75.7435
0.002083421,1.380034e-05,75.88455
0.002086371,1.389961e-05,76.02562
0.002087295,1.400041e-05,76.16666
0.002087265,1.40998e-05,76.30772
0.002088547,1.420075e-05,76.44876
0.002089918,1.430009e-05,76.5898
0.002088428,1.439943e-05,76.73084
0.00209108,1.450021e-05,76.87189
0.002091765,1.459951e-05,77.01295
0.002093434,1.470062e-05,77.15399
0.002092928,1.48e-05,77.29504
0.002094209,1.49008e-05,77.43609
