voltage [V],current [A],time [s]
-0.004960358,-6.999873e-05,0.0
-0.004953504,-6.989788e-05,0.1410709
-0.004947007,-6.979858e-05,0.2821122
-0.004940242,-6.969928e-05,0.4231839
-0.004933745,-6.95982e-05,0.5642176
-0.004926443,-6.94989e-05,0.7052699
-0.004919559,-6.939776e-05,0.8463261
-0.004913181,-6.929864e-05,0.9874085
-0.00490573,-6.919759e-05,1.128446
-0.004899323,-6.909843e-05,1.269497
-0.004893154,-6.899933e-05,1.410534
-0.004886001,-6.889837e-05,1.551588
-0.004879057,-6.879884e-05,1.692632
-0.004872948,-6.869773e-05,1.833685
-0.00486511,-6.85986e-05,1.974757
-0.004858047,-6.849936e-05,2.115802
-0.004851341,-6.839828e-05,2.256846
-0.004844427,-6.829912e-05,2.397891
-0.004838109,-6.819825e-05,2.538924
-0.004830867,-6.809892e-05,2.679967
-0.0048244,-6.799778e-05,2.821018
-0.004817873,-6.789842e-05,2.96207
-0.004810721,-6.779935e-05,3.103124
-0.004803628,-6.769825e-05,3.244167
-0.004797339,-6.759932e-05,3.385224
-0.004790306,-6.749813e-05,3.526271
-0.00478363,-6.73988e-05,3.667308
-0.004776597,-6.729955e-05,3.808365
-0.004769564,-6.719859e-05,3.949425
-0.004762828,-6.709923e-05,4.090464
-0.0047566,-6.699815e-05,4.231503
-0.004749388,-6.689914e-05,4.372567
-0.004742175,-6.679812e-05,4.513627
-0.004735589,-6.669876e-05,4.654656
-0.004729092,-6.659934e-05,4.795692
-0.004722506,-6.649853e-05,4.936773
-0.004715204,-6.639928e-05,5.07781
-0.004708201,-6.629815e-05,5.218843
-0.004701704,-6.619893e-05,5.359875
-0.004694551,-6.609812e-05,5.500933
-0.004688352,-6.599867e-05,5.64197
-0.004680574,-6.589937e-05,5.783005
-0.004674315,-6.579829e-05,5.924062
-0.00466767,-6.569902e-05,6.065125
-0.004660785,-6.559811e-05,6.206163
-0.004653871,-6.549904e-05,6.347205
-0.004647195,-6.539957e-05,6.488252
-0.00464046,-6.529849e-05,6.629316
-0.004633456,-6.519927e-05,6.770358
-0.004627019,-6.509828e-05,6.911406
-0.004619807,-6.499913e-05,7.052473
-0.004613072,-6.489799e-05,7.193529
-0.004605949,-6.47991e-05,7.334575
-0.004598945,-6.469962e-05,7.475611
-0.004592478,-6.459877e-05,7.616663
-0.004585266,-6.449898e-05,7.757717
-0.004578173,-6.439793e-05,7.898757
-0.004571706,-6.429874e-05,8.039803
-0.004565001,-6.419953e-05,8.180882
-0.004558325,-6.40986e-05,8.321928
-0.004551172,-6.399918e-05,8.462978
-0.004543841,-6.38983e-05,8.604028
-0.004537791,-6.3799e-05,8.745095
-0.004530579,-6.369798e-05,8.886136
-0.004524201,-6.359865e-05,9.027183
-0.0045169,-6.349958e-05,9.168248
-0.004510105,-6.339861e-05,9.309279
-0.004503101,-6.329936e-05,9.450327
-0.004496247,-6.319821e-05,9.59136
-0.004489541,-6.309888e-05,9.732427
-0.004482388,-6.299802e-05,9.873464
-0.004476041,-6.289882e-05,10.01451
-0.004469275,-6.279933e-05,10.15555
-0.004462302,-6.269831e-05,10.29662
-0.00445509,-6.259905e-05,10.43765
-0.004447967,-6.249806e-05,10.5787
-0.004441917,-6.239877e-05,10.71974
-0.004435241,-6.229937e-05,10.86081
-0.004428476,-6.219864e-05,11.00186
-0.004421115,-6.209938e-05,11.14291
-0.00441429,-6.199851e-05,11.28399
-0.004407853,-6.189899e-05,11.42504
-0.004400879,-6.179797e-05,11.56609
-0.004394472,-6.169874e-05,11.70714
-0.004387051,-6.159942e-05,11.84823
-0.004380822,-6.149849e-05,11.98928
-0.004373699,-6.139917e-05,12.13033
-0.004366457,-6.129841e-05,12.27137
-0.004359782,-6.119908e-05,12.41243
-0.004353106,-6.10998e-05,12.55347
-0.004345536,-6.099863e-05,12.69452
-0.004339457,-6.089943e-05,12.83557
-0.004332155,-6.079847e-05,12.97662
-0.00432539,-6.069934e-05,13.11767
-0.004317731,-6.059831e-05,13.25871
-0.004311502,-6.049909e-05,13.39975
-0.004304975,-6.039978e-05,13.5408
-0.004297912,-6.029884e-05,13.68185
-0.004291087,-6.019929e-05,13.8229
-0.004283994,-6.009838e-05,13.96397
-0.004277319,-5.999919e-05,14.10503
-0.004270375,-5.989833e-05,14.24608
-0.004263371,-5.979893e-05,14.38713
-0.004256845,-5.969958e-05,14.52819
-0.004249901,-5.959874e-05,14.66924
-0.004243284,-5.949935e-05,14.8103
-0.004235834,-5.939839e-05,14.95136
-0.004229069,-5.929901e-05,15.09241
-0.004222453,-5.919981e-05,15.23346
-0.004214704,-5.909885e-05,15.3745
-0.004208386,-5.899958e-05,15.51553
-0.00420174,-5.88985e-05,15.65659
-0.004194558,-5.879912e-05,15.79763
-0.004187584,-5.869835e-05,15.93869
-0.004180759,-5.859915e-05,16.07976
-0.00417456,-5.84997e-05,16.22082
-0.00416708,-5.839863e-05,16.36186
-0.004160523,-5.82995e-05,16.5029
-0.004153162,-5.819843e-05,16.64395
-0.00414592,-5.809913e-05,16.78498
-0.004139543,-5.799822e-05,16.92604
-0.004132897,-5.789909e-05,17.06707
-0.004125774,-5.779976e-05,17.20813
-0.004118443,-5.769861e-05,17.34916
-0.004111409,-5.759916e-05,17.49023
-0.004105121,-5.749809e-05,17.63129
-0.004097551,-5.739881e-05,17.77234
-0.004090607,-5.729978e-05,17.91339
-0.004084349,-5.719865e-05,18.05443
-0.004077017,-5.70993e-05,18.19548
-0.00407064,-5.699851e-05,18.33654
-0.004062951,-5.689918e-05,18.4776
-0.004056633,-5.679815e-05,18.61866
-0.004049122,-5.66987e-05,18.75969
-0.00404194,-5.659979e-05,18.90073
-0.004034996,-5.649868e-05,19.04179
-0.00402838,-5.639944e-05,19.18283
-0.004021406,-5.629839e-05,19.32387
-0.004014641,-5.61991e-05,19.4649
-0.004007429,-5.609987e-05,19.60596
-0.004001319,-5.59989e-05,19.747
-0.003993183,-5.589954e-05,19.88805
-0.003986746,-5.579842e-05,20.02911
-0.003979474,-5.569919e-05,20.17016
-0.003972352,-5.559823e-05,20.31119
-0.003965199,-5.549897e-05,20.45225
-0.003958106,-5.539956e-05,20.59329
-0.003951162,-5.529876e-05,20.73436
-0.003944665,-5.519959e-05,20.87543
-0.003937572,-5.509853e-05,21.01647
-0.00393036,-5.499911e-05,21.15752
-0.003923625,-5.489832e-05,21.29857
-0.003916115,-5.479899e-05,21.43962
-0.003909141,-5.469963e-05,21.58066
-0.003902078,-5.45986e-05,21.72173
-0.003895342,-5.449945e-05,21.86277
-0.003888249,-5.439854e-05,22.00382
-0.003880888,-5.429921e-05,22.14487
-0.003874213,-5.419995e-05,22.28592
-0.003866881,-5.409881e-05,22.42695
-0.003859818,-5.39996e-05,22.56801
-0.003852934,-5.389856e-05,22.70906
-0.003845185,-5.379951e-05,22.85012
-0.003838748,-5.369839e-05,22.99117
-0.003831655,-5.359921e-05,23.13223
-0.003823906,-5.350001e-05,23.27327
-0.003817081,-5.339905e-05,23.41432
-0.003810108,-5.329949e-05,23.55536
-0.003802866,-5.319848e-05,23.69642
-0.003795683,-5.309947e-05,23.83747
-0.003788859,-5.299997e-05,23.97851
-0.00378105,-5.289911e-05,24.11957
-0.003774107,-5.279982e-05,24.26062
-0.003767163,-5.269892e-05,24.40166
-0.003759354,-5.259956e-05,24.54271
-0.003752321,-5.249846e-05,24.68377
-0.003745168,-5.239925e-05,24.82482
-0.003737897,-5.229996e-05,24.96588
-0.003730237,-5.219894e-05,25.10694
-0.00372383,-5.209989e-05,25.24801
-0.00371626,-5.199869e-05,25.38907
-0.003708959,-5.189929e-05,25.53012
-0.003701448,-5.179844e-05,25.67117
-0.003694206,-5.169936e-05,25.81222
-0.003687382,-5.15998e-05,25.95327
-0.003679991,-5.149879e-05,26.09431
-0.003672361,-5.139974e-05,26.23537
-0.003664672,-5.129866e-05,26.37642
-0.003657162,-5.119934e-05,26.51747
-0.003650218,-5.110004e-05,26.65851
-0.00364247,-5.099936e-05,26.79956
-0.003635764,-5.089985e-05,26.9406
-0.003628522,-5.079866e-05,27.08164
-0.003620297,-5.069937e-05,27.22268
-0.003612846,-5.059829e-05,27.36372
-0.003605604,-5.049903e-05,27.50476
-0.003598362,-5.039976e-05,27.64581
-0.003590673,-5.029888e-05,27.78687
-0.00358364,-5.019939e-05,27.92794
-0.003575325,-5.009858e-05,28.06898
-0.003567576,-4.999939e-05,28.21003
-0.00356096,-4.98999e-05,28.35108
-0.003552705,-4.979887e-05,28.49213
-0.003544748,-4.969981e-05,28.63318
-0.00353691,-4.959885e-05,28.77422
-0.003529429,-4.949953e-05,28.91528
-0.00352177,-4.939846e-05,29.05632
-0.003513694,-4.92995e-05,29.19738
-0.003506154,-4.920003e-05,29.33843
-0.003498495,-4.909908e-05,29.47948
-0.00349015,-4.899954e-05,29.62052
-0.003482521,-4.889863e-05,29.76156
-0.003473938,-4.879929e-05,29.90261
-0.003466159,-4.869835e-05,30.04367
-0.003458321,-4.859916e-05,30.1847
-0.003450841,-4.84997e-05,30.32575
-0.003442138,-4.839888e-05,30.46681
-0.003434241,-4.829961e-05,30.60783
-0.003425539,-4.819868e-05,30.74888
-0.003418326,-4.809916e-05,30.88992
-0.003409743,-4.800015e-05,31.03099
-0.00340116,-4.789916e-05,31.17203
-0.003392637,-4.779978e-05,31.31308
-0.003383756,-4.769875e-05,31.45414
-0.003374726,-4.75995e-05,31.59519
-0.003366381,-4.749866e-05,31.73624
-0.003357679,-4.739925e-05,31.87731
-0.003348202,-4.730001e-05,32.01836
-0.003338814,-4.719901e-05,32.15943
-0.003330141,-4.709975e-05,32.30048
-0.003320754,-4.699871e-05,32.44153
-0.003311276,-4.689959e-05,32.58259
-0.003301769,-4.67986e-05,32.72362
-0.003292382,-4.669934e-05,32.86466
-0.003282219,-4.660012e-05,33.00572
-0.003272027,-4.649925e-05,33.14677
-0.003261149,-4.639965e-05,33.28781
-0.003250957,-4.629865e-05,33.42886
-0.003239542,-4.619954e-05,33.56991
-0.003228664,-4.610016e-05,33.71095
-0.003216237,-4.599917e-05,33.85198
-0.003203154,-4.589991e-05,33.99305
-0.003189594,-4.579916e-05,34.13408
-0.003174663,-4.569971e-05,34.27512
-0.003158629,-4.55986e-05,34.41615
-0.003138661,-4.549927e-05,34.55721
-0.003110141,-4.54001e-05,34.69824
-0.002822757,-4.529905e-05,34.83928
-0.002822131,-4.519989e-05,34.98035
-0.002821982,-4.509893e-05,35.1214
-0.002821147,-4.499948e-05,35.26245
-0.002821565,-4.490039e-05,35.40351
-0.002820581,-4.479942e-05,35.54456
-0.002819896,-4.469999e-05,35.6856
-0.002819926,-4.459891e-05,35.82664
-0.002818882,-4.449979e-05,35.96769
-0.002818376,-4.43989e-05,36.10875
-0.002818406,-4.429949e-05,36.24979
-0.002817601,-4.420022e-05,36.39083
-0.002816767,-4.409933e-05,36.53187
-0.002816528,-4.400001e-05,36.67294
-0.002816349,-4.389875e-05,36.81401
-0.002816111,-4.379937e-05,36.95506
-0.002815217,-4.369866e-05,37.09611
-0.002815425,-4.359914e-05,37.23717
-0.002814025,-4.349995e-05,37.3782
-0.002814025,-4.339895e-05,37.51924
-0.002813876,-4.329959e-05,37.66028
-0.002812833,-4.319868e-05,37.80134
-0.002812564,-4.309947e-05,37.9424
-0.002812356,-4.300018e-05,38.08345
-0.002811313,-4.289902e-05,38.2245
-0.00281176,-4.279993e-05,38.36554
-0.002810806,-4.269893e-05,38.50657
-0.002810627,-4.259965e-05,38.64761
-0.002810299,-4.249858e-05,38.78868
-0.002809346,-4.239951e-05,38.92973
-0.002809435,-4.230026e-05,39.07079
-0.00280869,-4.219919e-05,39.21183
-0.002809018,-4.209971e-05,39.3529
-0.002808332,-4.199868e-05,39.49395
-0.002807319,-4.189946e-05,39.63501
-0.002807081,-4.180014e-05,39.77607
-0.002807587,-4.169926e-05,39.91712
-0.002806276,-4.159998e-05,40.05817
-0.002806634,-4.149902e-05,40.19922
-0.002806038,-4.139984e-05,40.34028
-0.002806067,-4.129876e-05,40.48131
-0.002804905,-4.119932e-05,40.62234
-0.002804756,-4.110023e-05,40.76337
-0.002804339,-4.099919e-05,40.90445
-0.002804101,-4.090006e-05,41.0455
-0.002804101,-4.079887e-05,41.18656
-0.002802938,-4.069963e-05,41.32761
-0.002802759,-4.059874e-05,41.46868
-0.002801895,-4.049942e-05,41.60972
-0.002801836,-4.040002e-05,41.75076
-0.002801478,-4.029904e-05,41.89181
-0.002801299,-4.019993e-05,42.03289
-0.002800912,-4.009881e-05,42.17394
-0.002800971,-3.999964e-05,42.31498
-0.002800465,-3.990019e-05,42.45604
-0.00279966,-3.97994e-05,42.59708
-0.002799302,-3.970011e-05,42.73813
-0.002798975,-3.959921e-05,42.87917
-0.002798378,-3.949982e-05,43.02024
-0.002798826,-3.939877e-05,43.16128
-0.00279814,-3.929962e-05,43.30233
-0.002797931,-3.920025e-05,43.44339
-0.002797663,-3.909928e-05,43.58443
-0.002796799,-3.899993e-05,43.72547
-0.002796561,-3.889916e-05,43.86652
-0.002795964,-3.879987e-05,44.00758
-0.002795607,-3.870034e-05,44.14862
-0.002795428,-3.859935e-05,44.28965
-0.002795339,-3.85001e-05,44.4307
-0.002794623,-3.839914e-05,44.57178
-0.002794057,-3.829993e-05,44.71282
-0.002794027,-3.819886e-05,44.85388
-0.0027937,-3.809984e-05,44.99494
-0.002793133,-3.800041e-05,45.13599
-0.002792448,-3.789947e-05,45.27702
-0.00279209,-3.779997e-05,45.41809
-0.002792388,-3.769901e-05,45.55912
-0.002791703,-3.759986e-05,45.70017
-0.002791315,-3.749887e-05,45.84122
-0.002791077,-3.739963e-05,45.98228
-0.002790898,-3.730023e-05,46.12334
-0.002790451,-3.719941e-05,46.26439
-0.002790272,-3.710005e-05,46.40543
-0.002789766,-3.699875e-05,46.54647
-0.002789587,-3.689942e-05,46.68751
-0.002788544,-3.680029e-05,46.82856
-0.002788305,-3.669936e-05,46.96961
-0.002788097,-3.660003e-05,47.11066
-0.00278765,-3.649901e-05,47.25172
-0.00278753,-3.639967e-05,47.39276
-0.002786875,-3.629881e-05,47.5338
-0.002786398,-3.61995e-05,47.67484
-0.002786398,-3.610019e-05,47.81587
-0.002785742,-3.59992e-05,47.95692
-0.002785891,-3.589998e-05,48.09799
-0.002785474,-3.579902e-05,48.23904
-0.002784699,-3.569972e-05,48.38009
-0.002784908,-3.560036e-05,48.52114
-0.002784789,-3.549956e-05,48.66221
-0.00278455,-3.540023e-05,48.80325
-0.002783477,-3.529916e-05,48.9443
-0.002783835,-3.519973e-05,49.08534
-0.002783626,-3.509875e-05,49.22639
-0.002782285,-3.499954e-05,49.36743
-0.002782047,-3.490022e-05,49.50847
-0.002781987,-3.479926e-05,49.64952
-0.00278154,-3.469993e-05,49.79057
-0.002780974,-3.459917e-05,49.93161
-0.002780914,-3.449977e-05,50.07265
-0.002780497,-3.439876e-05,50.2137
-0.002779365,-3.429933e-05,50.35475
-0.002780348,-3.420023e-05,50.49579
-0.002779782,-3.409921e-05,50.63685
-0.002779543,-3.399995e-05,50.77791
-0.002778918,-3.389899e-05,50.91895
-0.002778798,-3.379956e-05,51.06
-0.002778232,-3.370039e-05,51.20105
-0.002777636,-3.359946e-05,51.34209
-0.002777278,-3.35001e-05,51.48315
-0.002777666,-3.339909e-05,51.62419
-0.002776951,-3.329993e-05,51.76525
-0.002776533,-3.319897e-05,51.9063
-0.002775967,-3.309968e-05,52.04735
-0.002775311,-3.300031e-05,52.1884
-0.002775788,-3.289951e-05,52.32947
-0.002775043,-3.280018e-05,52.4705
-0.002775431,-3.269923e-05,52.61155
-0.002774507,-3.259983e-05,52.75259
-0.002774149,-3.24991e-05,52.89364
-0.002773851,-3.239966e-05,53.0347
-0.002773494,-3.230032e-05,53.17575
-0.002773136,-3.219937e-05,53.3168
-0.002773225,-3.210006e-05,53.45785
-0.002772927,-3.199921e-05,53.59889
-0.002771646,-3.189991e-05,53.73993
-0.002771854,-3.180047e-05,53.88098
-0.002771854,-3.16994e-05,54.02203
-0.002770692,-3.16002e-05,54.16308
-0.002770662,-3.149922e-05,54.30413
-0.002770513,-3.139999e-05,54.4452
-0.002770692,-3.129897e-05,54.58624
-0.002769858,-3.119989e-05,54.7273
-0.002769798,-3.110053e-05,54.86836
-0.002768874,-3.099949e-05,55.0094
-0.002768874,-3.090009e-05,55.15044
-0.002768248,-3.079908e-05,55.29148
-0.002767891,-3.069993e-05,55.43254
-0.002767742,-3.060064e-05,55.5736
-0.002766877,-3.049966e-05,55.71466
-0.002767026,-3.040033e-05,55.85572
-0.002767503,-3.029946e-05,55.99679
-0.002765954,-3.02001e-05,56.13782
-0.002766371,-3.009882e-05,56.27887
-0.002765894,-2.999947e-05,56.41991
-0.002765119,-2.990033e-05,56.56096
-0.002764851,-2.979934e-05,56.702
-0.002764314,-2.970005e-05,56.84306
-0.002764136,-2.959906e-05,56.98412
-0.002764285,-2.949976e-05,57.12518
-0.002763271,-2.939893e-05,57.26622
-0.002763599,-2.929963e-05,57.40727
-0.002762526,-2.920027e-05,57.54831
-0.002762258,-2.909923e-05,57.68935
-0.002762616,-2.900009e-05,57.83038
-0.002762496,-2.889906e-05,57.97143
-0.002761453,-2.879971e-05,58.11249
-0.002761453,-2.870045e-05,58.25355
-0.002760828,-2.859961e-05,58.3946
-0.002760738,-2.850029e-05,58.53565
-0.002759725,-2.839914e-05,58.67671
-0.002760231,-2.829979e-05,58.81775
-0.002759367,-2.819877e-05,58.95879
-0.002758831,-2.80996e-05,59.09987
-0.002758473,-2.80003e-05,59.24092
-0.002758026,-2.789935e-05,59.38196
-0.002757698,-2.779999e-05,59.52301
-0.002757788,-2.769918e-05,59.66406
-0.002757877,-2.759985e-05,59.80511
-0.002757341,-2.750041e-05,59.94616
-0.002756774,-2.739941e-05,60.0872
-0.002756864,-2.730031e-05,60.22825
-0.002756089,-2.719928e-05,60.36928
-0.002755731,-2.710003e-05,60.51033
-0.002755493,-2.699897e-05,60.6514
-0.002755165,-2.689964e-05,60.79244
-0.002754569,-2.680044e-05,60.93348
-0.00275436,-2.669942e-05,61.07453
-0.002753884,-2.660022e-05,61.21559
-0.002753228,-2.649918e-05,61.35663
-0.002753258,-2.640006e-05,61.49766
-0.002752751,-2.629905e-05,61.63872
-0.002752542,-2.619976e-05,61.77979
-0.002752274,-2.61004e-05,61.92085
-0.002751619,-2.59996e-05,62.06191
-0.002751797,-2.590027e-05,62.20298
-0.00275141,-2.579927e-05,62.34402
-0.002751023,-2.569998e-05,62.48507
-0.002750576,-2.560086e-05,62.62611
-0.00274995,-2.549977e-05,62.76716
-0.002749473,-2.540046e-05,62.90821
-0.002749562,-2.529947e-05,63.04927
-0.002749056,-2.520016e-05,63.19033
-0.002748251,-2.509929e-05,63.33136
-0.002749145,-2.499996e-05,63.47241
-0.00274837,-2.490055e-05,63.61345
-0.002747625,-2.479948e-05,63.7545
-0.002747536,-2.47003e-05,63.89554
-0.002746791,-2.459929e-05,64.0366
-0.002746403,-2.45001e-05,64.17765
-0.002746016,-2.440071e-05,64.31871
-0.002745837,-2.429991e-05,64.45975
-0.002746016,-2.420065e-05,64.6008
-0.002744794,-2.409953e-05,64.74184
-0.002745152,-2.400012e-05,64.8829
-0.002744853,-2.389918e-05,65.02395
-0.002744585,-2.380001e-05,65.165
-0.002744526,-2.37007e-05,65.30605
-0.002743512,-2.359973e-05,65.4471
-0.002742946,-2.350043e-05,65.58815
-0.002742857,-2.339951e-05,65.7292
-0.002742708,-2.330018e-05,65.87027
-0.002742648,-2.319884e-05,66.01132
-0.00274235,-2.309958e-05,66.15237
-0.002741694,-2.300038e-05,66.2934
-0.002740771,-2.289942e-05,66.43448
-0.002740771,-2.280022e-05,66.57552
-0.002740651,-2.269914e-05,66.71657
-0.002740532,-2.259976e-05,66.85763
-0.002739757,-2.250064e-05,66.9987
-0.00273931,-2.239965e-05,67.13974
-0.002738714,-2.230027e-05,67.28078
-0.002738804,-2.219931e-05,67.42183
-0.002738327,-2.210018e-05,67.56286
-0.002738416,-2.199911e-05,67.7039
-0.002737224,-2.189979e-05,67.84495
-0.002737522,-2.180049e-05,67.98602
-0.002737552,-2.169966e-05,68.12706
-0.002737373,-2.16003e-05,68.26813
-0.00273633,-2.149915e-05,68.40918
-0.0027363,-2.139984e-05,68.55024
-0.002735466,-2.129881e-05,68.69127
-0.002736062,-2.119964e-05,68.83232
-0.002735049,-2.110032e-05,68.97337
-0.002734333,-2.099939e-05,69.11445
-0.002734065,-2.090006e-05,69.25549
-0.002733827,-2.079918e-05,69.39654
-0.002733171,-2.06999e-05,69.53759
-0.002733201,-2.060046e-05,69.67863
-0.002732903,-2.049943e-05,69.81967
-0.002732635,-2.040033e-05,69.96072
-0.002732038,-2.029933e-05,70.10177
-0.002732098,-2.020001e-05,70.2428
-0.002731889,-2.009902e-05,70.38384
-0.002731025,-1.999988e-05,70.52488
-0.002730787,-1.990044e-05,70.66592
-0.002730429,-1.979941e-05,70.80696
-0.002730012,-1.970024e-05,70.94801
-0.002730161,-1.959926e-05,71.08906
-0.00272873,-1.950009e-05,71.23012
-0.002728909,-1.940077e-05,71.37115
-0.002728283,-1.929984e-05,71.51221
-0.002728015,-1.920045e-05,71.65327
-0.002727449,-1.909964e-05,71.79432
-0.002727836,-1.90003e-05,71.93538
-0.002726734,-1.889936e-05,72.07644
-0.002726644,-1.879995e-05,72.21747
-0.002726227,-1.870086e-05,72.35852
-0.002725869,-1.859987e-05,72.49957
-0.002725631,-1.850046e-05,72.64064
-0.002724946,-1.839953e-05,72.78168
-0.002725095,-1.830021e-05,72.92273
-0.002725363,-1.819937e-05,73.0638
-0.002723962,-1.809998e-05,73.20486
-0.002723455,-1.800053e-05,73.3459
-0.002723485,-1.789957e-05,73.48693
-0.002723306,-1.780032e-05,73.62798
-0.00272271,-1.769932e-05,73.76902
-0.002722144,-1.76001e-05,73.91008
-0.002722234,-1.750079e-05,74.05113
-0.002722651,-1.739994e-05,74.1922
-0.002721637,-1.730063e-05,74.33324
-0.002721608,-1.719959e-05,74.47429
-0.002720684,-1.710017e-05,74.61533
-0.002719969,-1.699917e-05,74.75638
-0.002720416,-1.690004e-05,74.89742
-0.002719492,-1.680072e-05,75.03848
-0.002719283,-1.669973e-05,75.17955
-0.002718598,-1.66004e-05,75.32059
-0.002718538,-1.649956e-05,75.46164
-0.00271821,-1.640018e-05,75.60268
-0.002718031,-1.630055e-05,75.74374
-0.002717614,-1.619951e-05,75.88479
-0.002717286,-1.610043e-05,76.02584
-0.002717078,-1.599942e-05,76.16688
-0.002716541,-1.590015e-05,76.30794
-0.002715945,-1.579919e-05,76.44898
